3.00117 23734.8115728422
3.02128 22663.7790262338
3.0414 22202
3.06151 21858.6852525661
3.08162 21060.3595539173
3.10174 20582.7721228645
3.12185 19744.0752161784
3.14197 19180.370284921
3.16208 18957.5278234074
3.18219 18233.2335286839
3.20231 17981.7422380131
3.22242 17094.1306941029
3.24253 16634.9605726936
3.26265 16593.7066258997
3.28276 15736.1677708735
3.30288 15465.5116561447
3.32299 14699.2304979293
3.3431 14635
3.36322 14169.3729691698
3.38333 13649.5367989388
3.40344 13397.1174506622
3.42356 12694.5469144508
3.44367 12186.1116892072
3.46379 12159.2629825358
3.4839 11366
3.50401 11501.8187885804
3.52413 10589.1006982078
3.54424 10607.1884296016
3.56435 10297.6232366715
3.58447 9669.439375609
3.60458 9580.3187974239
3.62469 8961.27192532352
3.64481 8728.97685680808
3.66492 8600.65390813315
3.68504 8119.22395693005
3.70515 7906.57108167273
3.72526 7624.80342168796
3.74538 7260.1489735582
3.76549 7181.16288830822
3.7856 6729
3.80572 6794.70192464937
3.82583 6100.1708777348
3.84595 6007.40001487317
3.86606 6037.55316533939
3.88617 5589.45152051497
3.90629 5456.12763241318
3.9264 5065
3.94651 5018.95936336763
3.96663 4791.62762791656
3.98674 4646.92900854445
4.00686 4549.66479466717
4.02697 4098.40729985393
4.04708 4117.8699652337
4.0672 4090
4.08731 3761.94961786249
4.10742 3806.83162523205
4.12754 3416.4866976095
4.14765 3392.10482309895
4.16776 3212.37034182969
4.18788 3134.98495489636
4.20799 3123.07055660768
4.22811 2877.89135334593
4.24822 2799.04365148527
4.26833 2802.72821787444
4.28845 2546.82021752523
4.30856 2656.93253652029
4.32867 2493.33580774259
4.34879 2357.01680584547
4.3689 2347
4.38902 2227.96004836372
4.40913 2275.03496389325
4.42924 2215.82066762748
4.44936 2155.0443684374
4.46947 2161.97296890666
4.48958 2157.04392601677
4.5097 2071
4.52981 1954.94796220992
4.54992 1918.07351579603
4.57004 2031.07424662833
4.59015 1951.30700757708
4.61027 1855.10598494315
4.63038 1799.04850919742
4.65049 1765.00200876491
4.67061 1789.01731817195
4.69072 1780.9130838471
4.71083 1657.88255995927
4.73095 1638.94165387132
4.75106 1578.13292226297
4.77118 1563.93414648638
4.79129 1635.01359032549
4.8114 1520
4.83152 1497.97097304091
4.85163 1470.08244140138
4.87174 1553.95353119657
4.89186 1412.26758906012
4.91197 1368.98891876924
4.93209 1377.99877967919
4.9522 1374
4.97231 1393.02560236704
4.99243 1408.852501806
5.01254 1246.81112982091
5.03265 1273.81735961459
5.05277 1293.09028167371
5.07288 1216.00490386247
5.09299 1252.02148346269
5.11311 1143.98109142582
5.13322 1201.04237780635
5.15334 1183.97491095683
5.17345 1195.98284574285
5.19356 1141.17537917872
5.21368 1077.99401577647
5.23379 1120.99815101246
5.2539 1076
5.27402 1097.03120851926
5.29413 1099.95992594484
5.31425 1044.80041258019
5.33436 983.999338226483
5.35447 1037.91266238483
5.37459 1056.00911416547
5.3947 1003
5.41481 924.992947284975
5.43493 974.08952211256
5.45504 980.884409373869
5.47516 913.020239096305
5.49527 954.968073780966
5.51538 920.053831522502
5.5355 888
5.55561 902.01182297172
5.57572 924.018764608864
5.59584 918.903800033346
5.61595 847.138693870436
5.63606 843.906592909153
5.65618 884.021286327132
5.67629 829.003017134747
5.69641 873.006193072233
5.71652 816.920400316099
5.73663 781.047319180757
5.75675 834.011077374799
5.77686 794.021046372749
5.79697 840.912096407862
5.81709 845.035801637534
5.8372 747
5.85732 776.075869699711
5.87743 828.990625401998
5.89754 764.831548826312
5.91766 718.96956521796
5.93777 774.919391604122
5.95788 799.988284151284
5.978 801
5.99811 775.002711640503
6.01823 787.943605533622
6.03834 740.08048023031
6.05845 834.958897112498
6.07857 752.105546070754
6.09868 755.97099698716
6.11879 758.013904579079
6.13891 724.99490512675
6.15902 749.041820443339
6.17913 762.934364122387
6.19925 703.99670680874
6.21936 744.015003115375
6.23948 673.061163003804
6.25959 677.97246775815
6.2797 719
6.29982 663.990974804268
6.31993 720.092145636214
6.34004 723.884163996548
6.36016 675.921982239393
6.38027 757.994352497922
6.40039 688.008737835832
6.4205 725
6.44061 623.978070679279
6.46073 679.106214731516
6.48084 697.962325637756
6.50095 687.921995192032
6.52107 733.997924189664
6.54118 688.036367943091
6.56129 692.989202040139
6.58141 710.007803676771
6.60152 704.951738154638
6.62164 647.984631113878
6.64175 690.087112632239
6.66186 698.959578797685
6.68198 715.041385503703
6.70209 650.000334900079
6.7222 710
6.74232 696.02222995839
6.76243 734.935421982997
6.78255 641.970871385947
6.80266 728.857017685912
6.82277 706.125417135013
6.84289 643.995209828973
6.863 689
6.88311 642.00354247293
6.90323 698.006377388987
6.92334 658.046358146371
6.94346 735.96811489589
6.96357 668.086314558131
6.98368 673.97109514882
7.0038 686
7.02391 676.99889866874
7.04402 677.989369782991
7.06414 660.993867175482
7.08425 665.039447710145
7.10436 633.034500284866
7.12448 639.99007356799
7.14459 637.005265861862
7.16471 635.008656269469
7.18482 652.989045696072
7.20493 620.976865423459
7.22505 638.070268828679
7.24516 648.03291838809
7.26527 625.997360547692
7.28539 644.001368818709
7.3055 625
7.32562 663.034479410834
7.34573 664.962590753226
7.36584 646.028975919432
7.38596 684.947283828336
7.40607 672.063884089344
7.42618 620.049825964544
7.4463 607
7.46641 668.000831963029
7.48653 630.021168107714
7.50664 694.040031611264
7.52675 640.159628683012
7.54687 619.977918624293
7.56698 642.986334220071
7.58709 632.016742567728
7.60721 604.001976482565
7.62732 633.020742961896
7.64743 627.976884452345
7.66755 612.952912016473
7.68766 613.902476683651
7.70778 684.961461024548
7.72789 665.02524262432
7.748 612
7.76812 589.041385865713
7.78823 659.044093031013
7.80834 622.88403108056
7.82846 578.077359247989
7.84857 569.917405383883
7.86869 638.001479401776
7.8888 581
7.90891 634.015978712588
7.92903 624.01600958777
7.94914 666.042344149081
7.96925 648.059032947695
7.98937 644.984144330924
8.00948 652.006812078651
8.0296 629
8.04971 598.986309871138
8.06982 596.042084071064
8.08994 640.968871091545
8.11005 586.981801092231
8.13016 624.011899613995
8.15028 580.986817371789
8.17039 646.989194530604
8.1905 603
8.21062 612.009231522566
8.23073 609.022065899171
8.25085 641.046566971661
8.27096 629.05894923765
8.29107 610.985394072643
8.31119 630.003355966299
8.3313 608
8.35141 646.010816260016
8.37153 641.005564467172
8.39164 634.861384226458
8.41176 544.030611112846
8.43187 616.883718588301
8.45198 636.020005524275
8.4721 610
8.49221 607.003131422173
8.51232 595.951307152914
8.53244 554.060683976362
8.55255 634.891991422687
8.57266 612.060864019145
8.59278 613.98425314457
8.61289 617.008848868923
8.63301 599.005178960037
8.65312 621.991243163505
8.67323 588.991995257434
8.69335 618.046053992181
8.71346 609.017450867557
8.73357 619.96646080833
8.75369 638.995613177626
8.7738 640
8.79392 655.029908705613
8.81403 667.942418701285
8.83414 614.002017004341
8.85426 672.902394614671
8.87437 654.115708958713
8.89448 589.987699072407
8.9146 657
8.93471 638.994106964394
8.95483 654.002745660064
8.97494 634.984655918942
8.99505 640.032094453806
9.01517 604.04995689462
9.03528 594.988335965516
9.05539 605.005228123493
9.07551 580.994224886146
9.09562 580.985069374904
9.11573 566.039711398576
9.13585 623.086685301202
9.15596 617.026280436804
9.17608 616.003166006631
9.19619 606.003512361831
9.2163 588
9.23642 545.034376338102
9.25653 614.993579697851
9.27664 540.940338391054
9.29676 584.932440509573
9.31687 574.010382068283
9.33699 602.97624652092
9.3571 629
9.37721 591.997867157307
9.39733 601.933184713727
9.41744 530.999980855148
9.43755 600.897029178066
9.45767 585.005624726723
9.47778 609.002401371295
9.4979 562
9.51801 545.015940148497
9.53812 597.032119379997
9.55824 588.941550973281
9.57835 573.032925897155
9.59846 596.99920054774
9.61858 577.002955897924
9.63869 597.992837071341
9.6588 585
9.67892 545.95224826588
9.69903 525.063690663235
9.71915 593.04621751637
9.73926 549.089396224098
9.75937 551.942925381314
9.77949 587.995655761912
9.7996 578
9.81971 584.981412553627
9.83983 526.987370461091
9.85994 569.047168937124
9.88006 567.927584264305
9.90017 625.002248414194
9.92028 559.056538428509
9.9404 558
9.96051 573.995547823739
9.98062 552.993126673739
10.00074 569.043179354866
10.02085 589.923482519522
10.04097 605.055287155753
10.06108 551.996260827122
10.08119 605.98772060001
10.10131 569.975930972169
10.12142 550.000967443385
10.14153 558.012764822069
10.16165 572.076781224022
10.18176 600.01228382097
10.20187 563.04982765717
10.22199 561.987262240477
10.2421 599
10.26222 602.942088850708
10.28233 532.993710710246
10.30244 595.102781760715
10.32256 590.062400855499
10.34267 572.988633126148
10.36278 585.014195834959
10.3829 554
10.40301 582.017317914582
10.42313 594.986659707974
10.44324 575.96582727936
10.46335 565.030303075574
10.48347 559.973022845067
10.50358 581.012198211975
10.52369 547.003908656981
10.54381 565.999290069978
10.56392 534.977551308965
10.58403 547.051997166961
10.60415 574.000515839882
10.62426 568.940203132385
10.64438 612.006517790353
10.66449 569.001794687664
10.6846 611
10.70472 585.983244841675
10.72483 592.993521665654
10.74494 569.972249888045
10.76506 578.964111186647
10.78517 573.073351442745
10.80529 526.988625384243
10.8254 593
10.84551 554.995547745773
10.86563 608.094689352057
10.88574 624.930107235931
10.90585 565.127863711618
10.92597 547.984674978918
10.94608 557.013780468684
10.9662 541
10.98631 588.004845630289
11.00642 553.975755282616
11.02654 572.079460448326
11.04665 594.038479759805
11.06676 563.010406818105
11.08688 588.979070582254
11.10699 588.001932833763
11.1271 578
11.14722 538.007876197447
11.16733 589.059870204126
11.18745 580.901256087432
11.20756 546.020045867843
11.22767 560.969614931473
11.24779 569.001173253357
11.2679 565
11.28801 568.998956731776
11.30813 552.957056250103
11.32824 547.102072585632
11.34836 608.023359740567
11.36847 542.029585251728
11.38858 580.990472340338
11.4087 542
11.42881 561.001704989249
11.44892 544.010408586262
11.46904 581.029562900215
11.48915 569.980130441985
11.50927 603.967200493269
11.52938 584.053457441806
11.54949 539.99947275084
11.56961 574.009612003563
11.58972 567.002528408759
11.60983 585.005371947183
11.62995 566.957467031492
11.65006 566.978437897929
11.67017 559.07477506698
11.69029 495.012985198258
11.7104 523
11.73052 552.011302862717
11.75063 555.006100950125
11.77074 564.01656248594
11.79086 564.020610257323
11.81097 551.008801161259
11.83108 550.008072901731
11.8512 529
11.87131 521.015700841547
11.89143 571.040877621515
11.91154 563.975297183341
11.93165 566.974631658796
11.95177 573.002024205221
11.97188 568.00170937945
11.99199 568.003377785632
12.01211 560.002442306835
12.03222 576.011138267519
12.05234 581.026450513462
12.07245 584.907011363018
12.09256 530.032742581678
12.11268 564.956633324245
12.13279 587.992007564113
12.1529 595
12.17302 572.007249009176
12.19313 605.028151671603
12.21324 587.930371929481
12.23336 565.991523684971
12.25347 574.035431112149
12.27359 538.995040034522
12.2937 592
12.31381 579.981064531792
12.33393 565.050129643847
12.35404 623.06568117021
12.37415 604.120441259537
12.39427 570.992918393376
12.41438 589.015744020894
12.4345 551
12.45461 583.001364963499
12.47472 534.942383687145
12.49484 515.049860346689
12.51495 566.867766745483
12.53506 597.978506866435
12.55518 590.026998788662
12.57529 568.994616636215
12.5954 577
12.61552 482.952492698435
12.63563 520.113034383809
12.65575 573.03673114291
12.67586 557.04749282565
12.69597 548.986971792536
12.71609 563.995113082085
12.7362 561
12.75631 546.99365171427
12.77643 524.932847058229
12.79654 481.995365156776
12.81666 516.940174146366
12.83677 524.983859353961
12.85688 547.980470330688
12.877 544
12.89711 517.008253804483
12.91722 547.978081647829
12.93734 490.986771769195
12.95745 534.976263680904
12.97757 501.002203810205
12.99768 540.985965047505
13.01779 511.012319397388
13.03791 517.006427210934
13.05802 509.97014989955
13.07813 501.088266108591
13.09825 573.964276631314
13.11836 478.139884617288
13.13847 510.840256202476
13.15859 582.023012259145
13.1787 484
13.19882 573.029724781611
13.21893 501.905265253883
13.23904 513.08852329992
13.25916 526.084270906776
13.27927 473.988454501097
13.29938 529.977210587728
13.3195 500
13.33961 517.01121538039
13.35973 521.995317939975
13.37984 509.938191608753
13.39995 485.951626546791
13.42007 541.926488775816
13.44018 543.045085965172
13.46029 494.005867670128
13.48041 526.020579049156
13.50052 548.008200756164
13.52064 542.953388314831
13.54075 526.048301572703
13.56086 561.994697504557
13.58098 524.036062846386
13.60109 525.982943170852
13.6212 561
13.64132 545.985760520243
13.66143 557.052794641561
13.68154 584.979800556561
13.70166 550.030939555044
13.72177 564.981214312275
13.74189 563.996382352892
13.762 569
13.78211 515.983812660441
13.80223 513.992386205537
13.82234 508.057502254146
13.84245 549.014108561399
13.86257 499.049660158626
13.88268 499.01132965135
13.9028 462
13.92291 465.018786715147
13.94302 508.018951280354
13.96314 498.975928410431
13.98325 511.897811993416
14.00336 545.028565993056
14.02348 504.007106774636
14.04359 535.992160873355
14.06371 508.979687471569
14.08382 488.003632732568
14.10393 506.025859214157
14.12405 509.982488736669
14.14416 497.031921290428
14.16427 494.960731335952
14.18439 523.005678487139
14.2045 488
14.22461 513.995342681427
14.24473 469.977530764334
14.26484 493.01381357029
14.28496 473.007169858425
14.30507 491.993242011919
14.32518 476.00533410505
14.3453 495
14.36541 507.999008570703
14.38552 497.991165490994
14.40564 507.068866924678
14.42575 531.0759892695
14.44587 471.030418153518
14.46598 506.960485406599
14.48609 509.012153604003
14.50621 498.01548102353
14.52632 545.007976508054
14.54643 502.927664665614
14.56655 493.074809021992
14.58666 524.017649210411
14.60677 484.032563839513
14.62689 500.986613955207
14.647 505
14.66712 489.028519048092
14.68723 547.051396987554
14.70734 532.93081540168
14.72746 496.095280912768
14.74757 469.943664049475
14.76768 532.992594882711
14.7878 485
14.80791 511.007549120856
14.82803 503.022983810161
14.84814 537.002876182285
14.86825 500.074390296427
14.88837 509.944362880734
14.90848 531.026211706478
14.92859 480.010774592029
14.94871 511.026307654303
14.96882 536.981116130798
14.98894 495.956017035527
15.00905 504.021703107426
15.02916 500.001590438971
15.04928 511.981688010287
15.06939 521.004895083246
15.0895 515
15.10962 555.994739981622
15.12973 505.94601901505
15.14984 511.030333378133
15.16996 504.060901822556
15.19007 476.992214072526
15.21019 513.980379959677
15.2303 526
15.25041 499.991337048868
15.27053 518.092210165752
15.29064 560.907053514111
15.31075 466.075582858702
15.33087 523.914039853995
15.35098 520.037701537149
15.3711 486
15.39121 488.010649407612
15.41132 506.997260439111
15.43144 484.961196200889
15.45155 493.896628227711
15.47166 532.011588462134
15.49178 483.050470273713
15.51189 464.99616198093
15.53201 491.021789452504
15.55212 528.006038601686
15.57223 515.005666193236
15.59235 527.94729519565
15.61246 484.023622443073
15.63257 523.915075641154
15.65269 559.993919808447
15.6728 553
15.69291 538.999810970736
15.71303 541.980920586279
15.73314 514.958944455625
15.75326 515.965579096438
15.77337 527.018639962957
15.79348 496.027010831135
15.8136 470
15.83371 430.014461621658
15.85382 510.053583926809
15.87394 507.978615875498
15.89405 513.004625315596
15.91417 499.012989434671
15.93428 499.005345254659
15.95439 487.002873216339
15.97451 493.005200303138
15.99462 508.026834617844
16.01473 527.980087963409
16.03485 496.983142101844
16.05496 516.985090509926
16.07508 493.035005143715
16.09519 499.959083907163
16.1153 579
16.13542 459.942236608739
16.15553 509.087913692482
16.17564 521.010333937578
16.19576 527.051077322907
16.21587 486.011168203057
16.23598 513.983790039103
16.2561 500
16.27621 510.016944911984
16.29633 535.981006907837
16.31644 484.883556134469
16.33655 473.849080087194
16.35667 561.93025011841
16.37678 543.040004375064
16.39689 518.00887692966
16.41701 495.985347387633
16.43712 484.033534452142
16.45724 547.095150455893
16.47735 537.842081373064
16.49746 473.030820697093
16.51758 500.985032683713
16.53769 493.990865499443
16.5578 545
16.57792 539.946061002634
16.59803 482.98109229723
16.61814 506.006421478067
16.63826 489.958750965333
16.65837 531.016624023718
16.67849 491.984924304133
16.6986 564
16.71871 465.968435339614
16.73883 489.060041676794
16.75894 499.002640306592
16.77905 527.823742838145
16.79917 588.027188210772
16.81928 514.039189399732
16.8394 529
16.85951 486.982276896966
16.87962 484.00906813723
16.89974 498.064129463074
16.91985 536.948758252224
16.93996 524.073425443332
16.96008 495.995868488729
16.98019 518.997451436185
17.00031 498.992252578027
17.02042 503.009206250852
17.04053 509.012770811478
17.06065 519.011273909874
17.08076 522.969827815543
17.10087 530.048106485276
17.12099 482.004431851505
17.1411 526
17.16121 541.982937573536
17.18133 508.040987724821
17.20144 574.041576492991
17.22156 524.124532911702
17.24167 499.988455586948
17.26178 519.980683849647
17.2819 525
17.30201 519.009503567454
17.32212 543.991023571444
17.34224 503.943921384339
17.36235 497.047153080213
17.38247 471.987567341268
17.40258 513.963822047549
17.42269 524.997364214826
17.44281 534.001222929161
17.46292 523.981916020777
17.48303 513.010834952133
17.50315 528.003034772694
17.52326 507.059634827835
17.54338 495.977303391946
17.56349 534.988781829504
17.5836 531
17.60372 535.009248356388
17.62383 532.96526074998
17.64394 501.969546188468
17.66406 508.975172790626
17.68417 515.988958028727
17.70428 522.003051152672
17.7244 518
17.74451 552.02457091003
17.76463 575.948363952587
17.78474 517.973489681671
17.80485 556.923703315495
17.82497 541.060262626335
17.84508 526.959270278705
17.86519 576.009261509679
17.88531 504.983977970793
17.90542 540.039507275587
17.92554 540.962623397286
17.94565 525.983558693684
17.96576 527.987557134209
17.98588 528.012318018676
18.00599 516.994866000716
18.0261 537
18.04622 519.003546849961
18.06633 549.0356423518
18.08645 543.939598109866
18.10656 525.991378005645
18.12667 540.007235537492
18.14679 523.995405380761
18.1669 555
18.18701 553.013108875562
18.20713 591.989157012376
18.22724 549.986724779473
18.24735 580.997794955789
18.26747 544.022037333474
18.28758 560.004977786524
18.3077 534
18.32781 563.998636970912
18.34792 537.014869408884
18.36804 589.036102373226
18.38815 545.157009821873
18.40826 503.046511321438
18.42838 501.972752425166
18.44849 540.986226828212
18.46861 552.005931787986
18.48872 555.969768925271
18.50883 501.939475998468
18.52895 512.151626404736
18.54906 569.999156973264
18.56917 525.036091627002
18.58929 537.999982452179
18.6094 510
18.62951 518.011867654108
18.64963 539.018705572613
18.66974 557.085613838136
18.68986 584.098775738369
18.70997 495.045701853092
18.73008 555.912941673467
18.7502 587
18.77031 511.977277216099
18.79042 517.01619602556
18.81054 529.062853435377
18.83065 566.982357532615
18.85077 545.018160827264
18.87088 570.946826159067
18.89099 617.991395199273
18.91111 593.973361969987
18.93122 553.001928236647
18.95133 585.028342836531
18.97145 558.850209975085
18.99156 520.940270885062
19.01168 581.990584010534
19.03179 526.026166037914
19.0519 523
19.07202 548.022832136888
19.09213 553.966018183569
19.11224 526.003995783764
19.13236 567.888024504624
19.15247 599.012627502691
19.17258 560.045869846735
19.1927 538
19.21281 563.007748769865
19.23293 563.004165762898
19.25304 572.00064287548
19.27315 564.995224011944
19.29327 583.958315457113
19.31338 590.038442644567
19.33349 534.011524045939
19.35361 554.011528257386
19.37372 564.020293985058
19.39384 587.994527082119
19.41395 565.990857706151
19.43406 580.012890456334
19.45418 556.997390908806
19.47429 599.972217497309
19.4944 621
19.51452 575.005378501317
19.53463 625.036901772146
19.55475 604.963638592609
19.57486 616.980574306178
19.59497 609.018492870595
19.61509 612.98617299737
19.6352 637
19.65531 598.994850050618
19.67543 630.052787038734
19.69554 653.061258200053
19.71565 679.029039300239
19.73577 634.061388610607
19.75588 637.947191693248
19.776 704
19.79611 709.002795648415
19.81622 712.966119436231
19.83634 663.991061175345
19.85645 711.878944201403
19.87656 723.026665696435
19.89668 736.920353040096
19.91679 825.000538989793
19.93691 743.972945543541
19.95702 759.020797101517
19.97713 759.023418181933
19.99725 778.941207979212
20.01736 727.033729708478
20.03747 749.99283618668
20.05759 721.009957453387
20.0777 711
20.09782 659.001022362789
20.11793 710.052179884281
20.13804 697.951844946109
20.15816 698.942882383499
20.17827 741.938271816445
20.19838 737.079587095419
20.2185 656
20.23861 748.014380006703
20.25872 677.929420547983
20.27884 675.071907585098
20.29895 702.004370735259
20.31907 678.030286610319
20.33918 675.995151980702
20.35929 682.992154690605
20.37941 706.010955564
20.39952 710.980188788784
20.41963 698.050170244221
20.43975 754.036504567975
20.45986 702.159109834779
20.47998 634.054126442511
20.50009 618.975912288127
20.5202 688
20.54032 655.972570399073
20.56043 678.086581486665
20.58054 726.011096569328
20.60066 690.087597544073
20.62077 669.995858781688
20.64088 687.973395122545
20.661 703
20.68111 685.003661324082
20.70123 716.030416377547
20.72134 696.894187570613
20.74145 658.946617470226
20.76157 718.950055289373
20.78168 723.960317819226
20.80179 811.957320160587
20.82191 867.022878867976
20.84202 918.048068140178
20.86214 927.88767623794
20.88225 855.977745883055
20.90236 882.090137065405
20.92248 784.0254555668
20.94259 830.004337394949
20.9627 728
20.98282 681.994379050283
21.00293 692.032934875515
21.02305 688.846329550365
21.04316 628.928145649945
21.06327 729.939218939942
21.08339 678.025530637064
21.1035 667
21.12361 631.003874225552
21.14373 677.034762670219
21.16384 667.013398724401
21.18395 689.035467566538
21.20407 638.054565197804
21.22418 639.986731571786
21.2443 649
21.26441 671.007429032271
21.28452 666.978138681791
21.30464 634.930110127237
21.32475 618.95383603204
21.34486 666.886748282139
21.36498 693.024036561747
21.38509 656.995041762837
21.40521 708.014484113606
21.42532 668.909777785894
21.44543 613.072624299295
21.46555 720.123421284458
21.48566 669.157306804467
21.50577 633.987008418388
21.52589 661.98860888943
21.546 665
21.56612 654.985366308391
21.58623 652.040549904185
21.60634 673.926552103324
21.62646 615.974646366623
21.64657 684.971140571501
21.66668 641.014525077282
21.6868 680
21.70691 673.007616009952
21.72702 709.002017687406
21.74714 679.994890363444
21.76725 700.046383086905
21.78737 637.076991996179
21.80748 636.964366332122
21.82759 661.009853450412
21.84771 625.003777156729
21.86782 694.088217151679
21.88793 753.032345376113
21.90805 729.831482571585
21.92816 669.998638005595
21.94828 713.982540301888
21.96839 684.0142979272
21.9885 677
22.00862 652.990183512093
22.02873 662.012210157983
22.04884 664.020105355337
22.06896 677.007319661077
22.08907 660.011164269179
22.10919 664.00274025824
22.1293 650
22.14941 672.01563430324
22.16953 695.014540239482
22.18964 673.871414802136
22.20975 611.999649461398
22.22987 652.997852740994
22.24998 601.03836790561
22.27009 600.003142331275
22.29021 587.010884586416
22.31032 628.002870797619
22.33044 589.950994701953
22.35055 617.156984976175
22.37066 659.041768793205
22.39078 594.048250975361
22.41089 593.990117848408
22.431 603
22.45112 592.993265304734
22.47123 609.073443722538
22.49135 657.00494111188
22.51146 633.964985266943
22.53157 678.013978137875
22.55169 611.024176993578
22.5718 622
22.59191 641.999252329484
22.61203 621.955516418605
22.63214 614.073300002786
22.65225 663.979684621836
22.67237 629.036904734193
22.69248 654.936743419747
22.7126 692
22.73271 615.991298679718
22.75282 679.071599057746
22.77294 702.980996080015
22.79305 688.016689995174
22.81316 692.987102561048
22.83328 701.977337661832
22.85339 713.018718112433
22.87351 653.991998243211
22.89362 683.012074433465
22.91373 673.036447475651
22.93385 701.868739102199
22.95396 590.122783518724
22.97407 623.900919691784
22.99419 649.013401718455
23.0143 605
23.03442 625.016698453253
23.05453 625.012267254605
23.07464 643.008805496581
23.09476 625.051193007991
23.11487 607.01398064194
23.13498 613.970057473002
23.1551 636
23.17521 590.9987419364
23.19532 639.043185025886
23.21544 634.921779743293
23.23555 607.948038336322
23.25567 653.98085016906
23.27578 631.999949577304
23.29589 665.98864808015
23.31601 653.987421618747
23.33612 637.994396549176
23.35623 631.972869092099
23.37635 617.038192387812
23.39646 656.937312295915
23.41658 664.997708501307
23.43669 660.015749061024
23.4568 633
23.47692 683.98998842857
23.49703 625.985803843735
23.51714 679.066916466298
23.53726 672.968462201156
23.55737 729.916881998807
23.57749 741.017157105866
23.5976 697
23.61771 719.017341357071
23.63783 723.937377744338
23.65794 668.96569127041
23.67805 694.940754655715
23.69817 702.964288639192
23.71828 733.005585033642
23.73839 694.014062357194
23.75851 704.015743627041
23.77862 707.943857553307
23.79874 640.003941761822
23.81885 700.062917087529
23.83896 653.127084384146
23.85908 645.932017367249
23.87919 728.990949473481
23.8993 680
23.91942 680.993439040284
23.93953 651.971813511074
23.95965 662.063027675867
23.97976 684.967585763043
23.99987 696.978817948854
24.01999 694.022911509635
24.0401 642
24.06021 704.027606124369
24.08033 724.028083965379
24.10044 733.918856286976
24.12056 670.034274212037
24.14067 715.916191550786
24.16078 735.012272199507
24.1809 713
24.20101 722.017900505136
24.22112 742.961877500001
24.24124 669.922546002756
24.26135 683.957447676577
24.28146 668.070179704076
24.30158 648.981038899195
24.32169 671.015985274389
24.34181 610.9978589959
24.36192 664.028428496539
24.38203 633.938391003828
24.40215 617.996668676463
24.42226 620.984768591647
24.44237 628.994495710251
24.46249 634.990235831283
24.4826 662
24.50272 654.973391197145
24.52283 638.02719909451
24.54294 684.081829376376
24.56306 690.053235852797
24.58317 663.991466278783
24.60328 690.993405253937
24.6234 661
24.64351 649.015803147206
24.66362 688.99805242662
24.68374 641.910098789397
24.70385 633.955732502936
24.72397 648.011645883529
24.74408 636.977564117806
24.76419 686.982876023316
24.78431 669.969553917404
24.80442 606.970538334961
24.82453 620.04458694835
24.84465 642.03760274457
24.86476 644.036529361062
24.88488 611.034493288969
24.90499 614.965182853885
24.9251 705
24.94522 667.943133045825
24.96533 632.964475600415
24.98544 628.064681233408
25.00556 668.002898907971
25.02567 642.973215465243
25.04579 691.000863925004
25.0659 640
25.08601 661.997201246657
25.10613 617.964674525155
25.12624 623.973301475389
25.14635 591.008601925732
25.16647 623.959276008346
25.18658 622.01253690604
25.20669 608.012356819489
25.22681 604.028871685896
25.24692 683.017693231596
25.26704 651.023073337141
25.28715 707.020991476296
25.30726 644.131265281611
25.32738 632.966400489255
25.34749 668.997186649529
25.3676 645
25.38772 637.982614290401
25.40783 627.054002446272
25.42795 700.146951818142
25.44806 694.142189857584
25.46817 628.979662118526
25.48829 710.966555889688
25.5084 705
25.52851 648.982606525769
25.54863 648.035074972505
25.56874 659.948144865708
25.58886 612.053441055958
25.60897 641.880887614143
25.62908 710.995654021825
25.6492 666
25.66931 693.02050357925
25.68942 706.983023238396
25.70954 663.880334076665
25.72965 637.874073290009
25.74976 714.978629541473
25.76988 657.035541030379
25.78999 668.004454898728
25.81011 623.986382963899
25.83022 627.998579219825
25.85033 607.97759771326
25.87045 617.071223397014
25.89056 646.965757230419
25.91067 647.011628563595
25.93079 628.02138345825
25.9509 591
25.97102 634.013701507383
25.99113 593.913141675807
26.01124 579.107888427495
26.03136 659.923057280123
26.05147 640.039735218529
26.07158 641.98628782006
26.0917 649
26.11181 645.000708006089
26.13193 640.95793776237
26.15204 612.024318380037
26.17215 651.969907316207
26.19227 622.045800534593
26.21238 623.973536408724
26.23249 657.983989279592
26.25261 677.001828180341
26.27272 668.986159707606
26.29283 661.0059417453
26.31295 670.002589699268
26.33306 669.962782331295
26.35318 695.997970035632
26.37329 674.007332427308
26.3934 682
26.41352 691.006125124434
26.43363 706.048546175148
26.45374 750.081316036997
26.47386 771.99655617778
26.49397 792.879450434868
26.51409 909.955877916524
26.5342 975
26.55431 1139.07772478826
26.57443 1295.33527620886
26.59454 1550.35552951196
26.61465 1672.52214295133
26.63477 1884.91747992461
26.65488 1734.22765937654
26.67499 1547.07652329913
26.69511 1400.92285230104
26.71522 1233.8358521303
26.73534 1057.57385636496
26.75545 846.652642516621
26.77556 783.100896806015
26.79568 723.028046993772
26.81579 713.02323150717
26.8359 641
26.85602 667.032223096704
26.87613 655.919621986286
26.89625 597.940079357081
26.91636 629.856764772876
26.93647 696.950879958843
26.95659 687.016063040649
26.9767 653
26.99681 636.010935011949
27.01693 674.016061254762
27.03704 646.935602385685
27.05716 638.972666457346
27.07727 647.033406357293
27.09738 622.972158989023
27.1175 682
27.13761 632.970867867104
27.15772 627.053986152707
27.17784 680.971248887198
27.19795 615.079896498826
27.21806 642.941975625319
27.23818 655.96160538134
27.25829 713.985382443331
27.27841 696.983572588874
27.29852 697.051573900109
27.31863 760.022118652303
27.33875 726.946506974287
27.35886 735.007216605009
27.37897 701.062386397873
27.39909 704.959808258445
27.4192 799
27.43932 759.031514911721
27.45943 836.963122196314
27.47954 726.940982932054
27.49966 811.865232806089
27.51977 810.984620994786
27.53988 859.965293044451
27.56 870
27.58011 897.985030458568
27.60023 853.062835718415
27.62034 976.192020307844
27.64045 982.102630667383
27.66057 941.054937093937
27.68068 924.982682683004
27.70079 937.022362863851
27.72091 850.970452964582
27.74102 838.988759289224
27.76113 795.909606367835
27.78125 761.048988754223
27.80136 812.935191088782
27.82148 792.057010557579
27.84159 749.996124041481
27.8617 778
27.88182 712.945571787415
27.90193 711.050929078886
27.92204 744.022510523396
27.94216 738.990967218278
27.96227 757.981404416042
27.98239 735.03296300933
28.0025 669
28.02261 689.994231614157
28.04273 642.974048476901
28.06284 661.995025311115
28.08295 627.050599726513
28.10307 630.017908310134
28.12318 601.009507162218
28.1433 607
28.16341 562.985686000559
28.18352 572.028978017574
28.20364 597.028422842155
28.22375 593.949176622776
28.24386 574.002894531971
28.26398 587.991621021019
28.28409 586.996620882963
28.3042 602
28.32432 608.030541316966
28.34443 639.97745016995
28.36455 585.908962747044
28.38466 579.041914882828
28.40477 566.904342208799
28.42489 658.99798002971
28.445 571
28.46511 593.03512631869
28.48523 634.966551045575
28.50534 570.905661996729
28.52546 564.995537460847
28.54557 566.960189499732
28.56568 606.983205787492
28.5858 574
28.60591 527.017582570427
28.62602 606.02765113336
28.64614 562.9226807134
28.66625 572.928873754021
28.68636 584.02466456169
28.70648 565.002779583288
28.72659 571.007713076164
28.74671 532.984521834323
28.76682 533.025936709618
28.78693 549.966931222275
28.80705 516.028410224872
28.82716 551.040551574368
28.84727 493.994054232609
28.86739 571.966761479513
28.8875 576
28.90762 561.001320822852
28.92773 570.003005434013
28.94784 562.993121044959
28.96796 570.970734635074
28.98807 577.020021880018
29.00818 563.982022374258
29.0283 578
29.04841 504.013036918981
29.06853 611.075200906589
29.08864 553.843459788468
29.10875 523.991132986997
29.12887 540.961372572466
29.14898 568.972292984133
29.16909 584.004100861
29.18921 577.014542369726
29.20932 615.987430957965
29.22943 565.982168358141
29.24955 599.024272660686
29.26966 576.988483238424
29.28978 604.017865256483
29.30989 550.007341685432
29.33 595
29.35012 609.995261171131
29.37023 596.96290176617
29.39034 587.07012747571
29.41046 638.98103667859
29.43057 590.096593371964
29.45069 560.992360783265
29.4708 604
29.49091 631.006967678156
29.51103 635.992231171818
29.53114 631.013512596237
29.55125 646.97286755493
29.57137 655.963528553872
29.59148 688.982844762451
29.6116 686
29.63171 703.018889024429
29.65182 755.058172621446
29.67194 812.109813350195
29.69205 884.268481750624
29.71216 1009.78983163586
29.73228 1091.90843480928
29.75239 1212.93271719289
29.7725 1339
29.79262 1407.01469936895
29.81273 1374.91142116303
29.83285 1322.92686389351
29.85296 1294.12994575128
29.87307 1160.29489215658
29.89319 986.033824929997
29.9133 987
29.93341 863.950738022997
29.95353 831.971646816987
29.97364 794.936067927455
29.99376 773.05791592597
30.01387 739.028447539947
30.03398 752.955070417982
30.0541 793
30.07421 751.975488724828
30.09432 731.010826790962
30.11444 757.041485897075
30.13455 755.055309750213
30.15467 754.907453600761
30.17478 846.950488505022
30.19489 841.999886204477
30.21501 878.021044185738
30.23512 899.00147264765
30.25523 893.999586537781
30.27535 907.059018508038
30.29546 925.00350586178
30.31557 900.056451250992
30.33569 850.035747116908
30.3558 778
30.37592 763.976755798812
30.39603 703.868562322034
30.41614 633.971418076134
30.43626 676.872336299247
30.45637 697.079848696697
30.47648 606.062294169063
30.4966 603
30.51671 613.999853767744
30.53683 614.018640046477
30.55694 639.050659580369
30.57705 640.090058305537
30.59717 598.005307666904
30.61728 640.947179860819
30.63739 666.002380112985
30.65751 657.007047708054
30.67762 692.026068069645
30.69773 707.046234508719
30.71785 757.11203989359
30.73796 777.00294265531
30.75808 779.970636869959
30.77819 820.992382228069
30.7983 792
30.81842 756.008467296827
30.83853 774.954863584791
30.85864 709.948460281911
30.87876 726.025930049334
30.89887 673.048982785406
30.91899 660.02682916513
30.9391 585
30.95921 616.993273111009
30.97933 538.89750067041
30.99944 535.084979310073
31.01955 573.000777314166
31.03967 552.981688350944
31.05978 609.938361733452
31.0799 621
31.10001 533.967309907325
31.12012 535.060765751522
31.14024 592.996910155428
31.16035 544.068768641486
31.18046 558.979523333085
31.20058 548.998373561527
31.22069 571.988998055527
31.2408 561
31.26092 514.020272982635
31.28103 586.071564810729
31.30115 577.948859025766
31.32126 584.938018307381
31.34137 600.056685798735
31.36149 530.021778063017
31.3816 543
31.40171 573.002262051788
31.42183 561.995135133734
31.44194 566.981259573222
31.46206 556.948519313518
31.48217 596.010510127949
31.50228 542.042076327173
31.5224 543
31.54251 555.006445992781
31.56262 570.01205410212
31.58274 565.943270466476
31.60285 545.925676746724
31.62297 595.006026992929
31.64308 551.995360879759
31.66319 607.988010672694
31.68331 581.994566538034
31.70342 594.980811216039
31.72353 549.987905533822
31.74365 594.122135268223
31.76376 603.058530108741
31.78387 563.0367812451
31.80399 561.997603503632
31.8241 566
31.84422 574.976894958849
31.86433 526.942350398654
31.88444 531.09155032573
31.90456 581.96184322337
31.92467 565.03166263222
31.94478 553.021214202098
31.9649 533
31.98501 566.008986782667
32.00513 564.015139740743
32.02524 583.991011467132
32.04535 573.906187215655
32.06547 634.990455398049
32.08558 584.032681424766
32.10569 597.993117875376
32.12581 587.994788310929
32.14592 590.004109058755
32.16604 578.93408596571
32.18615 558.080480450385
32.20626 614.977113623674
32.22638 587.9887959085
32.24649 629.007313290576
32.2666 560
32.28672 574.997874783537
32.30683 544.999445028026
32.32694 587.079531633108
32.34706 586.072480286924
32.36717 547.021410866311
32.38729 561.989273800362
32.4074 573
32.42751 568.987655561135
32.44763 535.973406998518
32.46774 551.084255690669
32.48785 579.056258283762
32.50797 522.0580948187
32.52808 537.945193001251
32.5482 579
32.56831 535.990712257013
32.58842 556.016306382089
32.60854 561.055897917915
32.62865 605.948073406527
32.64876 587.067344212144
32.66888 567.999458843616
32.68899 575.002207511743
32.7091 552
32.72922 537.013470534413
32.74933 576.072783429692
32.76945 615.063095863583
32.78956 607.113574664157
32.80967 545.010421910737
32.82979 594.975883799598
32.8499 601
32.87001 579.991252364777
32.89013 570.998992202051
32.91024 580.040521126892
32.93036 604.958344721278
32.95047 623.958844816736
32.97058 648.002256950581
32.9907 647
33.01081 717.003274758631
33.03092 662.970969543789
33.05104 696.094366673858
33.07115 722.952499254043
33.09127 728.042110971531
33.11138 687.013934109802
33.13149 719.970130173984
33.15161 751.984438172165
33.17172 677.939251293911
33.19183 666.026459866783
33.21195 664.878305638612
33.23206 595.068756345985
33.25217 600.010753869158
33.27229 570.005700910137
33.2924 578
33.31252 546.994458229621
33.33263 567.003648239552
33.35274 556.045093218062
33.37286 585.077773086687
33.39297 508.015579959871
33.41308 579.935132746956
33.4332 586
33.45331 578.998362618689
33.47343 579.012511186521
33.49354 582.963703267559
33.51365 547.077258251226
33.53377 548.939217404656
33.55388 582.026926625975
33.57399 515.016990350117
33.59411 542.021667446954
33.61422 569.021733667638
33.63434 574.936260129087
33.65445 525.942723475872
33.67456 533.003300094988
33.69468 513.009128297358
33.71479 520.998854056371
33.7349 517
33.75502 545.021663839387
33.77513 544.97732525803
33.79524 535.017874289603
33.81536 561.940355135597
33.83547 573.022566386044
33.85559 543.013075698318
33.8757 532
33.89581 539.012572174997
33.91593 553.951632367654
33.93604 502.992217504916
33.95615 547.925906318569
33.97627 539.010967775533
33.99638 546.006373840947
34.0165 533
34.03661 564.00005890657
34.05672 535.993402931662
34.07684 570.088768253525
34.09695 587.047077174608
34.11706 550.057803370364
34.13718 546.985135419362
34.15729 551.013826020118
34.17741 527.018097185258
34.19752 598.023302141874
34.21763 558.948655754121
34.23775 574.105709878742
34.25786 603.007513538163
34.27797 580.014514930612
34.29809 589.998248161951
34.3182 570
34.33831 556.01591200874
34.35843 611.043974107587
34.37854 600.96978860602
34.39866 607.955982763197
34.41877 614.051145414264
34.43888 566.010713891889
34.459 604
34.47911 613.983246165174
34.49922 572.994623294816
34.51934 599.020801039101
34.53945 589.964042430235
34.55957 625.981327342531
34.57968 605.019194234887
34.59979 613.985771049169
34.61991 632.994430701603
34.64002 598.97124715493
34.66013 604.059612169145
34.68025 646.025423232278
34.70036 623.047387771064
34.72047 627.953611528044
34.74059 658.996362067764
34.7607 651
34.78082 682.026628355015
34.80093 692.010624682821
34.82104 714.081282732911
34.84116 747.011474010546
34.86127 716.018081889979
34.88138 743.955231212815
34.9015 800
34.92161 878.01027969191
34.94173 874.082498686018
34.96184 974.093013504939
34.98195 927.206028120897
35.00207 878.004837279014
35.02218 899.985643725079
35.04229 891.007662863476
35.06241 889.007069600185
35.08252 903.997572031187
35.10264 884.967086582356
35.12275 895.104037254818
35.14286 954.88334001661
35.16298 985.006969134935
35.18309 973.986778120127
35.2032 1040
35.22332 1064.98407189762
35.24343 1024.93029027963
35.26354 994.985889811165
35.28366 1016.89893445277
35.30377 1065.97509291835
35.32389 1042.02100495995
35.344 1007
35.36411 1021.03888120266
35.38423 1096.97316271587
35.40434 1008.91448662602
35.42445 1058.81238058947
35.44457 1115.90743749551
35.46468 1162.01438038314
35.4848 1128
35.50491 1210.01483028326
35.52502 1173.98646773141
35.54514 1223.12714120827
35.56525 1262.93910364656
35.58536 1282.96504629207
35.60548 1283.03449373066
35.62559 1227.02323983706
35.64571 1202.99078651221
35.66582 1178.97686794095
35.68593 1142.89769258868
35.70605 1057.83647585303
35.72616 1010.13231873702
35.74627 927.090120543216
35.76639 894.020012148395
35.7865 834
35.80661 791.98267017963
35.82673 756.949347817414
35.84684 726.951459123114
35.86696 715.982802900355
35.88707 730.997051873297
35.90718 709.037207154316
35.9273 689
35.94741 720.993361513817
35.96752 656.935869460089
35.98764 635.026570246127
36.00775 653.002447898261
36.02787 636.009659307606
36.04798 646.991266673092
36.06809 642.005276454458
36.08821 642.009291395118
36.10832 654.975009663631
36.12843 615.000987727144
36.14855 650.019280618474
36.16866 627.985689477021
36.18878 662.000571395685
36.20889 632.994895646862
36.229 679
36.24912 639.969234355419
36.26923 654.057502107789
36.28934 679.99365626124
36.30946 673.932299668245
36.32957 719.023790251739
36.34968 664.996799896983
36.3698 719
36.38991 652.975132310244
36.41003 663.043937875415
36.43014 690.086017766285
36.45025 741.91523706692
36.47037 746.017917795674
36.49048 728.027780834482
36.51059 711.989198722947
36.53071 740.990006189894
36.55082 672.94175614388
36.57094 672.094565469048
36.59105 713.979107339172
36.61116 660.09874898976
36.63128 628.050402424495
36.65139 575.999851670636
36.6715 618
36.69162 598.991527867558
36.71173 610.990900433832
36.73184 594.035387293509
36.75196 636.974818865838
36.77207 601.071132916686
36.79219 572.008458069967
36.8123 578
36.83241 632.005222202923
36.85253 600.970608414596
36.87264 604.975114575762
36.89275 585.938585168639
36.91287 636.9856455051
36.93298 589.053518538646
36.9531 572
36.97321 593.011795924581
36.99332 601.984686411172
37.01344 583.015575109612
37.03355 605.017234537625
37.05366 573.020114393476
37.07378 593.986036618833
37.09389 596.987070534739
37.11401 630.996467851383
37.13412 584.966433497624
37.15423 594.046636840981
37.17435 604.922043039548
37.19446 554.050922648642
37.21457 571.947615632286
37.23469 592.998941925601
37.2548 576
37.27491 564.018456814145
37.29503 617.009170156292
37.31514 577.959954509898
37.33526 581.06651410008
37.35537 530.980584089036
37.37548 597.968307357986
37.3956 564
37.41571 579.037727126404
37.43582 646.986848011138
37.45594 565.875953470387
37.47605 567.936013313568
37.49617 577.010851883126
37.51628 562.014438872629
37.53639 552.004822828875
37.55651 559.022047007373
37.57662 595.964593204261
37.59673 523.989177933312
37.61685 591.124801803698
37.63696 583.033194532273
37.65708 591.980810227697
37.67719 600.004732364352
37.6973 592
37.71742 615.98226528115
37.73753 564.957077294078
37.75764 585.08002759951
37.77776 614.965023180263
37.79787 617.022253711674
37.81798 576.074385089336
37.8381 525
37.85821 609.010542498361
37.87833 546.914783933527
37.89844 547.043043787262
37.91855 556.998649593587
37.93867 563.959689434083
37.95878 591.006657829538
37.97889 572.986604855103
37.99901 620.99442320298
38.01912 553.960891704933
38.03924 575.061126209432
38.05935 568.903369106946
38.07946 532.008225639919
38.09958 565.953550944297
38.11969 590.004301596483
38.1398 570
38.15992 592.014554125021
38.18003 579.957217328015
38.20015 565.04748611005
38.22026 599.975786018149
38.24037 572.070098276027
38.26049 548.988671029555
38.2806 590
38.30071 573.00510580999
38.32083 613.027251705031
38.34094 585.911098872957
38.36105 555.032933364416
38.38117 561.961228173797
38.40128 584.003762612156
38.4214 562
38.44151 572.005260140823
38.46162 569.992397374605
38.48174 567.00996547858
38.50185 574.993630822649
38.52196 571.006553431804
38.54208 566.016314567879
38.56219 542.008987000376
38.58231 535.999319650165
38.60242 549.044345323588
38.62253 592.991259685752
38.64265 559.02138311272
38.66276 606.973360305946
38.68287 573.030394072611
38.70299 582.003547322972
38.7231 564
38.74321 611.003246411421
38.76333 570.959552235109
38.78344 577.000325618558
38.80356 553.05424481951
38.82367 540.998405706268
38.84378 552.977239127383
38.8639 589
38.88401 623.992327503534
38.90412 587.004227627112
38.92424 632.045031857246
38.94435 610.063877275863
38.96447 608.983491931477
38.98458 616.9976558717
39.00469 629.978842997588
39.02481 670.994727937863
39.04492 615.95791547486
39.06503 630.085145845758
39.08515 663.895600416115
39.10526 585.047527451303
39.12538 628.967156661129
39.14549 614.010497138325
39.1656 620
39.18572 635.989459507481
39.20583 598.932540914616
39.22594 573.004922910951
39.24606 595.948028493736
39.26617 597.052375085603
39.28628 565.975668756237
39.3064 623
39.32651 584.986457205143
39.34663 600.037424673119
39.36674 604.973723564914
39.38685 595.960990624626
39.40697 626.975491122444
39.42708 617.018131337534
39.44719 618.983843960109
39.46731 659.007068195104
39.48742 641.97968613026
39.50754 634.991055844587
39.52765 634.035866395774
39.54776 642.063748059432
39.56788 579.050916733647
39.58799 564.997190709081
39.6081 572
39.62822 585.024144457488
39.64833 603.987174146783
39.66845 563.867763391525
39.68856 543.917807570447
39.70867 609.960965949328
39.72879 579.020142041334
39.7489 563
39.76901 553.993027892463
39.78913 541.997315688474
39.80924 557.060381476841
39.82935 582.992001459485
39.84947 562.042348053989
39.86958 553.976834911692
39.8897 586
39.90981 569.998224709568
39.92992 601.052049003732
39.95004 620.894850749221
39.97015 543.03608018374
39.99026 595.927882444355
40.01038 576.030903871433
40.03049 576.984554140864
40.05061 596.984945047803
40.07072 539.97900669392
40.09083 574.068588041874
40.11095 595.005379882072
40.13106 598.95986851534
40.15117 619.016293301597
40.17129 582.013539715913
40.1914 592
40.21152 619.986080080746
40.23163 597.04786194909
40.25174 658.000112910322
40.27186 593.087186910404
40.29197 611.943915980927
40.31208 618.031353573897
40.3322 591
40.35231 633.988444503451
40.37242 572.010063461734
40.39254 660.121717318728
40.41265 658.985444171883
40.43277 676.055244352371
40.45288 597.043170337862
40.47299 608.995365097061
40.49311 599.006050395592
40.51322 633.014063806182
40.53333 617.982301489951
40.55345 624.015933982088
40.57356 616.039122342975
40.59368 598.005660763016
40.61379 604.995350431926
40.6339 608
40.65402 604.997474966357
40.67413 598.977369898454
40.69424 593.054156543845
40.71436 636.960339260412
40.73447 625.016910434793
40.75458 635.977791285095
40.7747 650
40.79481 632.990390428964
40.81493 614.96307112026
40.83504 599.032461803534
40.85515 637.929931367595
40.87527 645.982499348887
40.89538 645.053763096788
40.91549 562.023540750301
40.93561 581.025468636956
40.95572 602.965584136873
40.97584 550.994138035096
40.99595 582.967394591118
41.01606 529.020827489155
41.03618 571.977931887922
41.05629 551.006046439026
41.0764 563
41.09652 538.978624629156
41.11663 552.080154157586
41.13675 606.019269757106
41.15686 560.120285342122
41.17697 530.986058698763
41.19709 549.005077820589
41.2172 527
41.23731 574.003481921324
41.25743 528.9378095935
41.27754 526.031773012629
41.29765 542.951181230075
41.31777 554.015956466693
41.33788 535.997724026183
41.358 548
41.37811 497.97515951738
41.39822 485.027288553697
41.41834 539.12617880159
41.43845 579.991303376929
41.45856 560.029497494801
41.47868 561.001318996892
41.49879 553.99894178955
41.51891 566.003871245446
41.53902 562.993735402509
41.55913 562.008091466124
41.57925 571.021515325453
41.59936 569.037715746783
41.61947 556.962466920748
41.63959 602.990028242076
41.6597 579
41.67982 560.008090466817
41.69993 565.951905601458
41.72004 526.037017785521
41.74016 585.965300578066
41.76027 544.051831188196
41.78038 551.980795955621
41.8005 556
41.82061 556.009328766899
41.84072 588.027403168702
41.86084 595.982063889694
41.88095 583.015927031532
41.90107 586.988495534866
41.92118 605.955715003486
41.94129 634.022300168917
41.96141 563.003031868069
41.98152 637.029566508246
42.00163 591.942757725695
42.02175 598.017310296243
42.04186 585.020732962293
42.06198 593.977393027342
42.08209 600.017666965461
42.1022 547
42.12232 570.031573334854
42.14243 571.954430947055
42.16254 540.000573198182
42.18266 582.876830034205
42.20277 619.016793837607
42.22289 591.994781664605
42.243 646
42.26311 666.005272169251
42.28323 670.973666863795
42.30334 657.065520708096
42.32345 709.000775176478
42.34357 665.011692009893
42.36368 711.959873086285
42.38379 722.989752612502
42.40391 748.994136562471
42.42402 698.954633336987
42.44414 687.016557173859
42.46425 682.911167271324
42.48436 640.012409933177
42.50448 655.022860725638
42.52459 600.010788918258
42.5447 615
42.56482 574.988307201089
42.58493 592.987471223331
42.60505 556.977923187336
42.62516 578.996041159535
42.64527 547.043366675556
42.66539 556.976060842206
42.6855 616
42.70561 637.008988535575
42.72573 640.939106836655
42.74584 582.965934348359
42.76595 608.967075590005
42.78607 597.986226441609
42.80618 638.960527926974
42.8263 634
42.84641 570.997954063753
42.86652 630.064182645104
42.88664 650.971936785277
42.90675 624.064336082424
42.92686 611.004355391046
42.94698 611.004456312403
42.96709 598.009387394343
42.98721 590.008452831198
43.00732 599.957103206998
43.02743 527.954098747728
43.04755 561.12342133059
43.06766 587.976279626147
43.08777 597.98024114114
43.10789 601.012878423778
43.128 558
43.14812 551.997360921063
43.16823 560.069035366455
43.18834 611.995594070889
43.20846 558.085536431244
43.22857 567.936593611467
43.24868 602.992157873466
43.2688 575
43.28891 532.996792668679
43.30902 550.003678139147
43.32914 526.947325397308
43.34925 529.895464162199
43.36937 571.014509441771
43.38948 532.993805880492
43.40959 595.970379095187
43.42971 593.969455132526
43.44982 521.9642215287
43.46993 534.038049684562
43.49005 538.962418879294
43.51016 523.990143468599
43.53028 543.989665319761
43.55039 535.006689526721
43.5705 522
43.59062 503.007808674989
43.61073 528.013918142575
43.63084 517.999381893667
43.65096 530.004254539378
43.67107 515.995801247467
43.69119 531.00312377873
43.7113 510
43.73141 529.992981287219
43.75153 483.961235581519
43.77164 504.0803427998
43.79175 530.98694749119
43.81187 524.002475811596
43.83198 517.040411058851
43.85209 461.01229609707
43.87221 491.030539434478
43.89232 527.980165751938
43.91244 488.018374267722
43.93255 539.041237756951
43.95266 494.113951194753
43.97278 482.955537282173
43.99289 542.987447781891
44.013 520
44.03312 508.007794279102
44.05323 530.049624566872
44.07335 539.888121779925
44.09346 480.006222473239
44.11357 539.913614080056
44.13369 543.019515305636
44.1538 505
44.17391 526.005712439319
44.19403 523.020699435331
44.21414 544.980428418411
44.23426 517.979010106853
44.25437 567.94518107145
44.27448 570.998290710399
44.2946 585
44.31471 582.000876940632
44.33482 577.964733967388
44.35494 538.015898718349
44.37505 585.932299001958
44.39516 587.934601577884
44.41528 631.023894723629
44.43539 570.993778656269
44.45551 656.024231779058
44.47562 627.963534724144
44.49573 611.949200331023
44.51585 567.981886876353
44.53596 591.993478681249
44.55607 555.066861979956
44.57619 542.985628767301
44.5963 585
44.61642 579.002644187402
44.63653 599.018465284079
44.65664 588.955620384279
44.67676 571.013912425056
44.69687 573.991816020969
44.71698 575.00292888649
44.7371 577
44.75721 583.984410598824
44.77732 542.004970074173
44.79744 588.046898229095
44.81755 563.089813564528
44.83767 542.02546811087
44.85778 534.979807745458
44.87789 566.994651247358
44.89801 554.998401159577
44.91812 571.014117464725
44.93823 573.000603144681
44.95835 561.893275858554
44.97846 515.999090545269
44.99858 557.970735104178
45.01869 550.007978574925
45.0388 549
45.05892 550.988022261286
45.07903 526.961663102475
45.09914 513.00168216452
45.11926 522.979623432398
45.13937 530.981948133787
45.15949 544.996346247617
45.1796 538
45.19971 503.975861048582
45.21983 480.060684212859
45.23994 553.06622772825
45.26005 526.088700221973
45.28017 513.015903078741
45.30028 504.984841029177
45.32039 529.999702842494
45.34051 512.001731130859
45.36062 525.97367670219
45.38074 490.072264719172
45.40085 572.049534357305
45.42096 511.105045607284
45.44108 510.991579880912
45.46119 509.992107005432
45.4813 537
45.50142 520.993077306584
45.52153 534.019299788842
45.54165 533.985465374484
45.56176 533.979328093673
45.58187 543.012982159877
45.60199 519.010165636899
45.6221 517
45.64221 522.991371987004
45.66233 500.008877230145
45.68244 535.059365647445
45.70256 541.004773502419
45.72267 534.034899888657
45.74278 522.958217559242
45.7629 587
45.78301 546.986870195997
45.80312 551.9866375835
45.82324 521.004065500473
45.84335 555.957492425759
45.86346 540.026837079615
45.88358 546.990311884631
45.90369 552.99327666873
45.92381 575.01003948893
45.94392 577.980803967491
45.96403 544.950588059893
45.98415 525.989571131765
46.00426 527.007984914458
46.02437 519.001070012274
46.04449 520.007056987975
46.0646 494
46.08472 498.018151739489
46.10483 511.997801122503
46.12494 510.046967300927
46.14506 536.041816457641
46.16517 494.977232347115
46.18528 549.998466893255
46.2054 489
46.22551 508.01428469456
46.24563 509.980748219262
46.26574 489.937940194113
46.28585 478.889235384651
46.30597 544.973233120732
46.32608 505.037659376471
46.34619 504.993337985024
46.36631 509.999623680555
46.38642 505.992667416106
46.40653 503.013802872313
46.42665 523.053418852594
46.44676 527.046051631025
46.46688 488.03373726726
46.48699 481.988199740318
46.5071 511
46.52722 503.007502400271
46.54733 528.019436161215
46.56744 516.9645610418
46.58756 504.02709466895
46.60767 498.972472429329
46.62779 533.985254639115
46.6479 533
46.66801 479.974319666919
46.68813 454.00681071004
46.70824 483.084759462911
46.72835 527.884428197526
46.74847 547.055184348572
46.76858 491.009129596734
46.78869 530.987367522472
46.80881 516.992872178225
46.82892 510.972119707865
46.84904 478.018696202304
46.86915 520.044525870541
46.88926 495.059519600086
46.90938 493.976330510114
46.92949 510.010128562177
46.9496 464
46.96972 468.023259314235
46.98983 486.007047152436
47.00995 486.029064667556
47.03006 499.024756531499
47.05017 480.965705789558
47.07029 531.990468814945
47.0904 499
47.11051 472.99309212502
47.13063 468.012135345874
47.15074 485.034730210613
47.17086 494.994172851243
47.19097 500.97215318891
47.21108 526.981746375385
47.2312 522
47.25131 495.000808595688
47.27142 515.001526230191
47.29154 493.978372017647
47.31165 507.948183738606
47.33176 507.066536968671
47.35188 471.994826802757
47.37199 498.007239349258
47.39211 455.001087312782
47.41222 509.038820503884
47.43233 502.978405960836
47.45245 496.957382167157
47.47256 478.978033106988
47.49267 502.01773496109
47.51279 467.99810233607
47.5329 506
47.55302 475.986065356464
47.57313 511.093662749786
47.59324 548.964026153456
47.61336 495.075676969982
47.63347 500.96026760024
47.65358 509.026390733706
47.6737 472
47.69381 503.018836162157
47.71393 513.972815551429
47.73404 483.955916981415
47.75415 478.002586792985
47.77427 478.982898303475
47.79438 498.981967669427
47.81449 502.007421450029
47.83461 477.989356502562
47.85472 480.034398982635
47.87483 518.004736674752
47.89495 498.016243793812
47.91506 532.968979893373
47.93518 516.014973950397
47.95529 516.003179305096
47.9754 498
47.99552 485.96999862547
48.01563 462.038755182947
48.03574 524.080899150261
48.05586 512.076594742677
48.07597 483.014502180511
48.09609 489.994435025091
48.1162 493
48.13631 489.003004807161
48.15643 500.002832289668
48.17654 496.014523210168
48.19665 507.025096913186
48.21677 483.00880098782
48.23688 497.993504674989
48.257 481
48.27711 468.00401968844
48.29722 492.026734423581
48.31734 513.038661339525
48.33745 518.941095600374
48.35756 487.999220488357
48.37768 516.983775207285
48.39779 501.013206383451
48.4179 475
48.43802 450.017904687116
48.45813 493.027320727537
48.47825 483.018842623361
48.49836 505.024999452782
48.51847 475.967795951121
48.53859 535.990657471147
48.5587 507
48.57881 534.996385377198
48.59893 489.972566894416
48.61904 512.024193961859
48.63916 481.113064829375
48.65927 451.947284024716
48.67938 508.003890153032
48.6995 448
48.71961 488.034394956723
48.73972 538.024557337561
48.75984 529.91630651018
48.77995 489.007878833092
48.80006 522.932397452495
48.82018 512.063226271393
48.84029 449.000769997356
48.86041 501.01816300494
48.88052 498.002326557657
48.90063 511.980895368761
48.92075 482.001786926591
48.94086 517.94470516797
48.96097 525.970318604014
48.98109 557.993763380916
49.0012 534
49.02132 501.000510532463
49.04143 527.034489584732
49.06154 535.017822646379
49.08166 537.057410372617
49.10177 489.04697318131
49.12188 496.965651427911
49.142 531
49.16211 522.983293856522
49.18223 494.00612414852
49.20234 530.076552744317
49.22245 537.072056618169
49.24257 506.987573048421
49.26268 546.974767011054
49.28279 530.020215823099
49.30291 498.996649712715
49.32302 524.049420238653
49.34313 557.977658854757
49.36325 519.994950470683
49.38336 552.983854846574
49.40348 522.024355750297
49.42359 538.976244838478
49.4437 584
49.46382 568.96483472843
49.48393 548.020937407866
49.50404 571.976901582641
49.52416 540.977123136332
49.54427 582.006278162999
49.56439 524.02248761326
49.5845 538
49.60461 571.988557775874
49.62473 516.964057127873
49.64484 549.101094832763
49.66495 575.013253206728
49.68507 544.066751005021
49.70518 515.992764966389
49.7253 528
49.74541 477.003002259095
49.76552 541.047371558846
49.78564 535.96076236818
49.80575 521.936022706743
49.82586 491.024138896152
49.84598 499.991520923802
49.86609 496.003460881798
49.8862 494
49.90632 500.013644252339
49.92643 526.059556658862
49.94655 554.979155532521
49.96666 519.054192270017
49.98677 520.976786953163
50.00689 537.9890847617
50.027 558
50.04711 559.005158665645
50.06723 571.989307450316
50.08734 558.030195890361
50.10746 594.969792323255
50.12757 598.93024223116
50.14768 653.028265887513
50.1678 569
50.18791 627.02029502889
50.20802 596.943467085369
50.22814 559.971205070567
50.24825 560.983133714985
50.26837 546.081360249123
50.28848 487.010431282997
50.30859 517.993947351115
50.32871 488.984026778902
50.34882 486.02028372205
50.36893 508.011354861229
50.38905 495.947822396481
50.40916 478.026840012947
50.42927 480.955042321039
50.44939 507.010046316741
50.4695 466
50.48962 511.009002107728
50.50973 471.96375493975
50.52984 492.062483724481
50.54996 503.0166849235
50.57007 489.010511237656
50.59018 493.990570320493
50.6103 513
50.63041 556.005980872315
50.65053 523.915913198195
50.67064 493.048639645231
50.69075 537.998950335115
50.71087 493.039119732123
50.73098 503.000743541635
50.75109 483.000360073058
50.77121 517.022676056772
50.79132 537.983389190307
50.81143 505.982196571505
50.83155 518.011419793742
50.85166 508.994990638967
50.87178 522.999693459726
50.89189 502.012275846361
50.912 495
50.93212 505.979109167885
50.95223 473.005173662324
50.97234 507.020738675856
50.99246 496.946851783554
51.01257 545.004997578146
51.03269 496.007868056121
51.0528 530
51.07291 498.969390469748
51.09303 458.012881872241
51.11314 502.072368712178
51.13325 498.084620243938
51.15337 475.967689144879
51.17348 511.013797495122
51.1936 457
51.21371 484.012119393451
51.23382 493.033200697237
51.25394 528.954551145986
51.27405 454.14528253695
51.29416 468.847147272552
51.31428 545.973475487441
51.33439 503.040364566185
51.3545 442
51.37462 467.029009408617
51.39473 472.985462902307
51.41485 472.061769431634
51.43496 502.999428674839
51.45507 482.989916796271
51.47519 516.992827972045
51.4953 497
51.51541 493.001593639637
51.53553 477.929114475413
51.55564 443.07313344278
51.57576 527.90092485356
51.59587 509.057593634029
51.61598 489.012311340258
51.6361 475
51.65621 461.993622761246
51.67632 463.029120104552
51.69644 510.079325630921
51.71655 507.140694086366
51.73667 452.976908234013
51.75678 511.990885385472
51.77689 462.012338579931
51.79701 494.017881752333
51.81712 505.009852996572
51.83723 514.981264866375
51.85735 477.898265958094
51.87746 462.959619653931
51.89757 499.961309747795
51.91769 512.986993445126
51.9378 539
51.95792 499.989033594005
51.97803 527.032614139204
51.99814 528.01487636279
52.01826 543.007677345677
52.03837 525.00169710681
52.05848 543.988810687249
52.0786 538
52.09871 546.006907636356
52.11883 555.0003214972
52.13894 546.976476230497
52.15905 549.920649229416
52.17917 576.043100224141
52.19928 519.008955273503
52.21939 565.982796692116
52.23951 553.987927161993
52.25962 541.990610758314
52.27974 548.087789218192
52.29985 599.010461017611
52.31996 558.061357604251
52.34008 559.00067152932
52.36019 546.99973933049
52.3803 550
52.40042 514.014327226223
52.42053 571.050987375408
52.44064 555.949439055595
52.46076 544.026607591244
52.48087 527.011733368893
52.50099 534.99118627524
52.5211 545
52.54121 518.985299043976
52.56133 496.975015822492
52.58144 485.995127544147
52.60155 487.008490644718
52.62167 485.97593680736
52.64178 507.998198865327
52.6619 507
52.68201 549.982617919218
52.70212 459.959018545909
52.72224 486.015932947322
52.74235 454.021722450939
52.76246 485.946531912272
52.78258 489.990627852642
52.80269 502.008232176185
52.8228 469
52.84292 503.043925063361
52.86303 519.973771525583
52.88315 480.90031374829
52.90326 470.938411781261
52.92337 516.96356543188
52.94349 503.016093722718
52.9636 484
52.98371 499.999533074034
53.00383 480.983060582208
53.02394 495.062750498748
53.04406 518.007866808246
53.06417 501.992520912572
53.08428 528.983365184999
53.1044 518
53.12451 508.007721657308
53.14462 533.006707115687
53.16474 519.986899971345
53.18485 518.062691828967
53.20497 472.054210342536
53.22508 481.937994908914
53.24519 545.995610146287
53.26531 507.990346766909
53.28542 530.020863511966
53.30553 522.970753480451
53.32565 505.963661376912
53.34576 497.993769650797
53.36587 499.028031223667
53.38599 471.004396902054
53.4061 501
53.42622 542.984421974028
53.44633 496.985518777105
53.46644 540.091320765611
53.48656 544.065344282532
53.50667 507.020419212687
53.52678 517.9907003865
53.5469 508
53.56701 495.002173219237
53.58713 510.013755776957
53.60724 521.073126792111
53.62735 562.993787991712
53.64747 515.096820407899
53.66758 496.941309542373
53.68769 575.994249100151
53.70781 509.967173565405
53.72792 495.009546833028
53.74804 508.043107793989
53.76815 528.006930663586
53.78826 534.904871891823
53.80838 590.008234986987
53.82849 521.028040568505
53.8486 526
53.86872 574.048334049589
53.88883 591.94309043508
53.90894 521.895689639719
53.92906 510.989943399738
53.94917 527.9247094822
53.96929 578.003027930008
53.9894 538
54.00951 588.009914760421
54.02963 548.924009928169
54.04974 528.007802117105
54.06985 540.972187961293
54.08997 528.07263163205
54.11008 487.97545697879
54.1302 572
54.15031 583.968563911579
54.17042 503.967269382445
54.19054 527.047876030424
54.21065 518.052919211643
54.23076 513.95631359529
54.25088 540.997790629878
54.27099 523.001845857986
54.29111 529.98982336627
54.31122 489.986515028129
54.33133 503.995265103507
54.35145 487.042658117158
54.37156 528.981202680535
54.39167 500.024151070841
54.41179 512.996470074798
54.4319 502
54.45201 514.010337758736
54.47213 531.015047232036
54.49224 528.967765319204
54.51236 513.992442259973
54.53247 525.016170616978
54.55258 505.984383783334
54.5727 548
54.59281 523.985545579879
54.61292 529.042279511471
54.63304 569.994221667108
54.65315 531.061374089753
54.67327 550.933320575239
54.69338 596.956429500781
54.71349 601.034706160451
54.73361 527.012721644401
54.75372 631.057477971856
54.77383 577.844481919896
54.79395 532.154964988022
54.81406 632.960786298128
54.83417 570.04157796716
54.85429 613.982958080131
54.8744 588
54.89452 544.979751325743
54.91463 545.011537733187
54.93474 546.990880866641
54.95486 540.008639548877
54.97497 546.967184344781
54.99508 570.990746380065
55.0152 548
55.03531 505.008527377988
55.05543 562.044180453412
55.07554 532.896460457998
55.09565 509.943784485086
55.11577 551.971952239176
55.13588 532.031386058785
55.15599 520.992835349232
55.17611 549.012364915756
55.19622 553.985184843439
55.21634 526.937554687807
55.23645 512.036111390678
55.25656 524.070579889524
55.27668 476.977710531284
55.29679 545.994264678568
55.3169 483
55.33702 506.069589263423
55.35713 561.006784826844
55.37724 519.907376731164
55.39736 492.049665359418
55.41747 477.968946968416
55.43759 513.996295780217
55.4577 494
55.47781 521.011790026333
55.49793 527.009994187439
55.51804 527.941301006887
55.53815 501.909850959429
55.55827 556.047020723758
55.57838 464.023475583266
55.5985 527
55.61861 499.989027104566
55.63872 519.025843098732
55.65884 512.914453335664
55.67895 478.93518556595
55.69906 535.984288118143
55.71918 494.011932204005
55.73929 527.992073004016
55.75941 507.995194525624
55.77952 525.013754460981
55.79963 525.007909453404
55.81975 522.897802886421
55.83986 467.02913549834
55.85997 499.953596375112
55.88009 491.018705771072
55.9002 466
55.92031 517.022848772918
55.94043 538.022108634463
55.96054 558.035536357726
55.98066 557.058032333814
56.00077 531.969007534671
56.02088 574.003219196293
56.041 538
56.06111 591.006131142179
56.08122 552.985139197377
56.10134 572.987192846265
56.12145 535.032646285222
56.14157 556.983574588516
56.16168 547.991851714299
56.18179 582.983023999999
56.20191 587.987717200149
56.22202 575.040478561204
56.24213 632.995705127263
56.26225 567.873934007679
56.28236 566.984253531365
56.30248 561.001651221327
56.32259 565.003625264831
56.3427 553
56.36282 577.015827226143
56.38293 577.002133970826
56.40304 582.992848165901
56.42316 575.980232792565
56.44327 593.009123070421
56.46338 571.000296215815
56.4835 586
56.50361 568.023242615368
56.52373 645.005948958512
56.54384 599.059216146088
56.56395 686.993569776466
56.58407 595.077808465322
56.60418 632.95666901716
56.62429 627.012940080425
56.64441 603.986838479882
56.66452 573.972948157142
56.68464 561.012503175838
56.70475 575.012923192361
56.72486 577.952779332536
56.74498 603.016181693985
56.76509 561.004714610463
56.7852 588
56.80532 548.937460838601
56.82543 517.043992581597
56.84554 564.986559115331
56.86566 513.028195987353
56.88577 564.904996265049
56.90589 585.012140932654
56.926 541
56.94611 527.000981277286
56.96623 541.044838810148
56.98634 575.0436360976
57.00645 583.972588088128
57.02657 597.000354243131
57.04668 585.006929860829
57.0668 579
57.08691 543.993913302775
57.10702 557.008916810984
57.12714 549.988697237735
57.14725 557.958578762207
57.16736 567.019832287318
57.18748 549.003574725484
57.20759 555.005834656407
57.22771 537.007259556662
57.24782 575.013386267254
57.26793 547.94683227823
57.28805 536.0302581602
57.30816 547.031712416991
57.32827 516.012623308208
57.34839 538.98730133227
57.3685 537
57.38861 503.996130994691
57.40873 517.002723312925
57.42884 512.048512944936
57.44896 536.084178932199
57.46907 471.963148473162
57.48918 562.976308366006
57.5093 485
57.52941 481.025933291698
57.54952 547.057678993886
57.56964 544.816247620384
57.58975 437.044505693717
57.60987 523.848636280408
57.62998 547.057424932239
57.65009 466.021974754966
57.67021 473.006098947393
57.69032 475.021945075939
57.71043 507.002382802377
57.73055 486.010870000152
57.75066 512.008045133736
57.77078 473.027084143683
57.79089 481.988629629396
57.811 494
57.83112 482.985183956058
57.85123 480.028142159187
57.87134 513.058942947192
57.89146 525.004978152015
57.91157 509.047421041968
57.93168 480.005297617696
57.9518 497
57.97191 484.97641144963
57.99203 448.038540348669
58.01214 506.014976034724
58.03225 469.974997423443
58.05237 520.008811287065
58.07248 456.027857200478
58.09259 487.98923457371
58.11271 476.000748082023
58.13282 500.008412201062
58.15294 480.959294111192
58.17305 483.056099996394
58.19316 492.072823200317
58.21328 446.984242886431
58.23339 512.98211886851
58.2535 497
58.27362 517.014043830129
58.29373 510.992422258851
58.31385 506.940754611048
58.33396 460.1037835463
58.35407 441.943483026692
58.37419 504.982469164021
58.3943 492
58.41441 484.008406790601
58.43453 501.986799422802
58.45464 465.928802347407
58.47475 450.009504311293
58.49487 451.986093312549
58.51498 464.988563264746
58.5351 469
58.55521 468.007286371826
58.57532 484.993735706534
58.59544 461.984976721422
58.61555 482.924633264548
58.63566 499.005499692861
58.65578 499.968249727972
58.67589 534.009951492
58.69601 464.971790474367
58.71612 457.015927703193
58.73623 482.065295280678
58.75635 523.017434386997
58.77646 500.035423942162
58.79657 508.966784180271
58.81669 521.004120131633
58.8368 499
58.85691 498.007749454893
58.87703 515.007095372981
58.89714 506.984652306532
58.91726 508.983957037111
58.93737 507.036555777254
58.95748 473.017840185323
58.9776 486
58.99771 515.005714963542
59.01782 510.995929393923
59.03794 503.943968630647
59.05805 485.896493562495
59.07817 540.045318106079
59.09828 445.042302744132
59.11839 494.967638410012
59.13851 522.006610721445
59.15862 528.983895759848
59.17873 494.955726991909
59.19885 491.052275158985
59.21896 513.000939798729
59.23908 490.022169408681
59.25919 478.007663021685
59.2793 463
59.29942 486.027657878638
59.31953 506.022192219422
59.33964 508.963467630028
59.35976 477.055921032002
59.37987 471.970044776879
59.39998 500.98045379164
59.4201 504
59.44021 487.975951872746
59.46033 449.046292138763
59.48044 522.05325176986
59.50055 484.081785553978
59.52067 488.991441700044
59.54078 482.993099192384
59.56089 492.012207171056
59.58101 450.997688974059
59.60112 495.052036585451
59.62124 515.980727262783
59.64135 502.018128830212
59.66146 522.002947860902
59.68158 498.013355287634
59.70169 507.993475284827
59.7218 507
59.74192 504.023005312516
59.76203 535.005437107824
59.78215 513.980359390697
59.80226 525.003934070627
59.82237 505.016648645708
59.84249 515.990311599959
59.8626 522
59.88271 502.000838394528
59.90283 540.094265445649
59.92294 610.138856923091
59.94305 642.090775047959
59.96317 552.14606700404
59.98328 509.968278094735
60.0034 557
60.02351 498.997722288057
60.04362 568.066281085498
60.06374 570.908104707917
60.08385 527.011489228896
60.10396 566.894732593769
60.12408 581.044706926939
60.14419 509.023314131102
60.16431 509.008106406512
60.18442 511.990654467969
60.20453 507.022800435619
60.22465 526.983450807151
60.24476 504.98947200917
60.26487 519.057258369724
60.28499 458.994716168894
60.3051 535
60.32522 514.982547698638
60.34533 528.008413187074
60.36544 515.99575097732
60.38556 528.988432786127
60.40567 520.013683845531
60.42578 529.96636422928
60.4459 550
60.46601 487.992516321538
60.48612 524.018411895479
60.50624 503.977821953215
60.52635 514.009631582049
60.54647 501.969063741436
60.56658 545.983361253849
60.58669 524.010664172379
60.60681 528.007469931389
60.62692 522.958504691406
60.64703 469.966703186283
60.66715 483.027914382251
60.68726 484.955801101866
60.70738 523.977399225629
60.72749 515.011427562563
60.7476 501
60.76772 504.992157400967
60.78783 489.997406625956
60.80794 511.065686376001
60.82806 530.020760560555
60.84817 503.023111750834
60.86828 517.963968227194
60.8884 539
60.90851 496.993380150523
60.92863 521.031019637214
60.94874 508.932197373943
60.96885 481.010657372575
60.98897 491.999324980284
61.00908 474.018335383584
61.02919 478.982973687391
61.04931 525.017129801691
61.06942 524.966102758411
61.08954 501.059459584481
61.10965 552.997452601386
61.12976 504.033268058456
61.14988 544.956197560049
61.16999 548.013620093704
61.1901 525
61.21022 551.013973311008
61.23033 537.965801926647
61.25045 528.021560206396
61.27056 538.023253554173
61.29067 523.961203119031
61.31079 572.993853813751
61.3309 542
61.35101 549.000515845442
61.37113 526.958403150815
61.39124 510.993066928823
61.41135 522.92628474911
61.43147 538.051009485737
61.45158 486.003573221169
61.4717 529
61.49181 518.007303833052
61.51192 551.989179638224
61.53204 505.985369922636
61.55215 553.885721839024
61.57226 564.005227150095
61.59238 555.032169770467
61.61249 509.01638364477
61.63261 513.018921163596
61.65272 556.021691589879
61.67283 553.996462677909
61.69295 569.066630686026
61.71306 575.082883822914
61.73317 507.068874701159
61.75329 509.984597226159
61.7734 535
61.79352 529.001299185731
61.81363 539.00097523483
61.83374 520.944162013474
61.85386 503.986633152822
61.87397 529.9576790038
61.89408 544.997125711425
61.9142 553
61.93431 574.985299976975
61.95442 525.004946854421
61.97454 579.043594824956
61.99465 542.102930302313
62.01477 550.911033224021
62.03488 602.017267817547
62.05499 539.012844157408
62.07511 575.019643184918
62.09522 567.954912516224
62.11533 533.023519162821
62.13545 590.121021528334
62.15556 597.037009609414
62.17568 577.013428178185
62.19579 578.990780584456
62.2159 606
62.23602 615.987207590099
62.25613 586.952241934882
62.27624 571.011810164143
62.29636 591.954096428671
62.31647 612.958878397275
62.33659 635.002148490396
62.3567 613
62.37681 630.015008766116
62.39693 656.02763912707
62.41704 643.875732325549
62.43715 586.939073181518
62.45727 665.954285416269
62.47738 615.062241738257
62.49749 598.990763613922
62.51761 608.985151202183
62.53772 569.010723872728
62.55784 615.009774632418
62.57795 585.04247619844
62.59806 634.032267722116
62.61818 562.021194494328
62.63829 601.997423915374
62.6584 558
62.67852 607.054793792158
62.69863 621.974341264465
62.71875 587.891791653299
62.73886 564.959492775174
62.75897 596.020343614981
62.77909 547.009659152436
62.7992 578
62.81931 591.001176643645
62.83943 579.939143266036
62.85954 539.00923241792
62.87965 585.900843268777
62.89977 589.02138070156
62.91988 576.012371608222
62.94 560
62.96011 536.99364046056
62.98022 539.011062897477
63.00034 543.978673688754
63.02045 524.03254651873
63.04056 528.963844420845
63.06068 538.017580384912
63.08079 507.006646678126
63.10091 520.008480496373
63.12102 529.011073029927
63.14113 528.948349313166
63.16125 492.040376957883
63.18136 541.98284809924
63.20147 501.035761367903
63.22159 520.988074267927
63.2417 522
63.26182 516.999957691486
63.28193 517.995756368766
63.30204 507.968878123479
63.32216 496.995039963494
63.34227 506.000305238726
63.36238 497.001585223327
63.3825 513
63.40261 531.998243804962
63.42272 514.992596197546
63.44284 515.97079734562
63.46295 485.058616006633
63.48307 485.971432803454
63.50318 504.993153871345
63.52329 505.993332537607
63.54341 519.992261953673
63.56352 484.985809853253
63.58363 503.032497598864
63.60375 520.080018599504
63.62386 545.048749522423
63.64398 491.02118166176
63.66409 522.978375028182
63.6842 531
63.70432 491.994095825394
63.72443 516.017242441292
63.74454 511.033010640916
63.76466 541.006162096796
63.78477 511.006582178592
63.80489 529.007725150306
63.825 499
63.84511 571.00953846695
63.86523 525.960578423467
63.88534 539.987756097804
63.90545 491.132889484101
63.92557 468.989252987786
63.94568 500.945915744105
63.96579 547.993884778904
63.98591 529.99184041756
64.00602 523.98146612226
64.02614 510.061593897518
64.04625 573.105176078094
64.06636 559.105508652848
64.08648 514.007149050122
64.10659 531.999720811742
64.1267 501
64.14682 499.036362600707
64.16693 545.02972735671
64.18705 535.986451397023
64.20716 539.031834821193
64.22727 497.070753980362
64.24739 468.003677926033
64.2675 484
64.28761 510.992402487958
64.30773 473.989785107721
64.32784 505.049750325159
64.34796 503.012313848835
64.36807 501.018412253559
64.38818 486.992438489361
64.4083 504
64.42841 472.993629531964
64.44852 496.036346359076
64.46864 499.89557637267
64.48875 438.000723597831
64.50886 493.928489720129
64.52898 477.025911332987
64.54909 475.992895266126
64.56921 489.002420793689
64.58932 486.999236835199
64.60943 488.997337842131
64.62955 473.922393015358
64.64966 454.951045106563
64.66977 514.916602735815
64.68989 526.017397725269
64.71 483
64.73012 501.007263895075
64.75023 471.924515168763
64.77034 444.047899545068
64.79046 490.978074310375
64.81057 466.003756823234
64.83068 496.983267430714
64.8508 480
64.87091 471.999370614076
64.89102 474.009644329278
64.91114 482.991025413498
64.93125 475.964495868788
64.95137 499.0069502397
64.97148 469.016345757225
64.99159 480.991908798885
65.01171 478.990723422439
65.03182 472.031208918959
65.05193 515.001933623739
65.07205 472.915669875277
65.09216 470.994953671791
65.11228 465.997035275345
65.13239 480.992286730477
65.1525 487
65.17262 485.004475187986
65.19273 484.967161626333
65.21284 453.98087535552
65.23296 472.951660734719
65.25307 489.969700247213
65.27319 504.006227882749
65.2933 474
65.31341 480.006548148384
65.33353 486.002219266643
65.35364 482.979811427551
65.37375 477.96256719215
65.39387 513.936052004117
65.41398 539.003416505902
65.43409 510.020370788075
65.45421 484.001129878184
65.47432 519.058664650887
65.49444 564.003650839819
65.51455 539.99082150667
65.53466 559.998138797179
65.55478 547.976203746122
65.57489 581.016786146648
65.595 508
65.61512 571.038519879017
65.63523 542.938039920786
65.65535 534.041053434616
65.67546 550.006989360245
65.69557 533.008339053414
65.71569 550.985710839722
65.7358 557
65.75591 506.994385810327
65.77603 536.029219183053
65.79614 523.967593220553
65.81626 514.040311851023
65.83637 483.037980455539
65.85648 486.959280336773
65.8766 530
65.89671 493.985015445775
65.91682 491.001007702606
65.93694 494.051949577377
65.95705 524.016354433743
65.97716 475.113108744736
65.99728 458.961360015451
66.01739 514.989442800993
66.03751 487.981793659017
66.05762 479.017198552401
66.07773 496.991789663989
66.09785 488.078780837696
66.11796 537.996708686567
66.13807 486.066537209213
66.15819 488.985332233088
66.1783 508
66.19842 500.033279138815
66.21853 547.990788099358
66.23864 473.82622024222
66.25876 450.871577908918
66.27887 539.958938535479
66.29898 498.032837982675
66.3191 517
66.33921 520.980302387199
66.35933 474.99556043301
66.37944 516.073450771849
66.39955 518.039074373678
66.41967 508.992894875207
66.43978 514.015339762622
66.45989 489.001486966802
66.48001 509.006112849412
66.50012 509.013709528949
66.52023 520.953154578044
66.54035 466.964063047459
66.56046 497.959757928373
66.58058 489.000493701012
66.60069 504.998640138867
66.6208 482
66.64092 476.035757066845
66.66103 514.980188069096
66.68114 459.937820678698
66.70126 484.904461375409
66.72137 508.025179719448
66.74149 469.014030196302
66.7616 471
66.78171 477.990291333658
66.80183 453.008068460494
66.82194 482.020185437058
66.84205 464.03206367414
66.86217 461.032176439467
66.88228 438.975904715044
66.90239 496.983861870997
66.92251 486.995090196532
66.94262 489.986186953332
66.96274 464.998709908362
66.98285 497.094156489492
67.00296 498.102727472492
67.02308 440.99935561802
67.04319 484.995153692477
67.0633 444
67.08342 437.971426037523
67.10353 413.078095178817
67.12365 515.126552539695
67.14376 488.061859587656
67.16387 490.002474573228
67.18399 468.011040339014
67.2041 464
67.22421 472.993726357563
67.24433 464.056795099787
67.26444 516.985370512532
67.28456 456.06413706256
67.30467 472.993006511009
67.32478 441.031174634548
67.3449 449
67.36501 490.993462430097
67.38512 453.015813187239
67.40524 511.019447022511
67.42535 464.05429616579
67.44546 477.048460198518
67.46558 426.991346332108
67.48569 494.978474452452
67.50581 478.98722958559
67.52592 466.975624604571
67.54603 439.005407806141
67.56615 476.09274074178
67.58626 484.035598711204
67.60637 464.002864580808
67.62649 481.990353465265
67.6466 497
67.66672 508.968349687689
67.68683 449.944326284089
67.70694 465.098291066097
67.72706 509.961565049776
67.74717 498.042002906157
67.76728 477.005642446118
67.7874 482
67.80751 472.9914004921
67.82763 467.032034086888
67.84774 490.971210469275
67.86785 457.976449326163
67.88797 508.954416063288
67.90808 490.035237197175
67.92819 467.007379501006
67.94831 461.003845507024
67.96842 473.001916158319
67.98853 470.017209599431
68.00865 492.022488935858
68.02876 499.91657243183
68.04888 551.997051359799
68.06899 507.016178523805
68.0891 511
68.10922 502.001211444689
68.12933 512.995720270489
68.14944 489.948438935343
68.16956 482.967083881555
68.18967 506.983809892308
68.20979 490.019291566342
68.2299 461
68.25001 489.005174691907
68.27013 481.017956400248
68.29024 506.991337813725
68.31035 480.986511008212
68.33047 518.972254935778
68.35058 498.028444765297
68.3707 485
68.39081 486.008707452074
68.41092 490.954414372884
68.43104 437.037244890354
68.45115 507.049014472339
68.47126 463.03890006523
68.49138 495.974630742362
68.51149 484.009653275112
68.5316 475
68.55172 457.984923914707
68.57183 449.994790196025
68.59195 453.035258095587
68.61206 467.99858367831
68.63217 459.994277052065
68.65229 477.993121070991
68.6724 472
68.69251 448.995909177223
68.71263 451.994113288825
68.73274 446.029753765094
68.75286 469.009916476201
68.77297 443.006239699415
68.79308 461.999496643058
68.8132 443
68.83331 455.986222990612
68.85342 408.003389447279
68.87354 464.076288646224
68.89365 450.076428635851
68.91376 435.9990481978
68.93388 447.977456163222
68.95399 455.016982603558
68.97411 410.000028158464
68.99422 455.033906559236
69.01433 459.015653612905
69.03445 479.99758065818
69.05456 445.0961135567
69.07467 418.982915852882
69.09479 451.988456134588
69.1149 451
69.13502 452.009800642359
69.15513 453.966911490011
69.17524 422.983487928171
69.19536 444.943944523422
69.21547 460.985879751964
69.23558 461.017853640262
69.2557 439
69.27581 461.016067338392
69.29593 474.973617666246
69.31604 444.980584292883
69.33615 454.015472933375
69.35627 433.001834919784
69.37638 462.962238066107
69.39649 470.019683063077
69.41661 424.001737561133
69.43672 473.034586974953
69.45683 470.997435594052
69.47695 471.923126878945
69.49706 424.030631191056
69.51718 453.961388545862
69.53729 475.991980456353
69.5574 490
69.57752 489.003930572161
69.59763 501.018678828213
69.61774 498.952050524083
69.63786 470.017697181823
69.65797 465.062654917918
69.67809 409.002921599026
69.6982 456
69.71831 451.99074249748
69.73843 447.013613081995
69.75854 458.000341045803
69.77865 450.994561328635
69.79877 465.977562489437
69.81888 462.029129252955
69.839 429
69.85911 436.994743725094
69.87922 416.011958263462
69.89934 459.057017744245
69.91945 445.907868689985
69.93956 420.988814240061
69.95968 443.991234509974
69.97979 427.011333454273
69.9999 426
70.02002 465.023299638403
70.04013 463.987844124093
70.06025 455.955550739336
70.08036 438.990638096846
70.10047 458.987781067778
70.12059 453.996180108752
70.1407 476
70.16081 457.978089851491
70.18093 424.012151456579
70.20104 468.083232475929
70.22116 474.050713666366
70.24127 449.991142706044
70.26138 482.971655180715
70.2815 474
70.30161 427.998949975886
70.32172 473.05314155887
70.34184 496.990743214023
70.36195 468.12298823221
70.38207 430.992880604208
70.40218 459.993982169121
70.42229 440.000905437486
70.44241 471.016997155681
70.46252 483.997083145265
70.48263 479.002281182984
70.50275 475.932310478835
70.52286 458.906187077378
70.54297 529.998975865209
70.56309 458.025966658714
70.5832 467
70.60332 468.005702778537
70.62343 481.000039570692
70.64354 461.952259353531
70.66366 453.970210000801
70.68377 473.00413296133
70.70388 450.015624623073
70.724 458
70.74411 474.002790785346
70.76423 477.020975889357
70.78434 486.954611123168
70.80445 456.957149077187
70.82457 504.988223634201
70.84468 467.018368586893
70.86479 481.00307689002
70.88491 444.988700000831
70.90502 456.022063142309
70.92513 471.017915943336
70.94525 475.974501135096
70.96536 458.019692585668
70.98548 463.986098287206
71.00559 479.990069579107
71.0257 498
71.04582 486.968467121115
71.06593 454.98442135944
71.08604 463.003215568098
71.10616 455.986113800537
71.12627 473.994826489926
71.14639 465.995372570289
71.1665 494
71.18661 489.992779765044
71.20673 467.941369441352
71.22684 430.989260710565
71.24695 458.916300300407
71.26707 471.013952726405
71.28718 447.031912438924
71.3073 437
71.32741 493.013601409532
71.34752 471.960026126531
71.36764 439.948988001073
71.38775 435.91379898781
71.40786 484.956316635184
71.42798 471.016993895066
71.44809 468.002292869055
71.4682 464
71.48832 471.958658608149
71.50843 418.02018807914
71.52855 479.022025348587
71.54866 424.061449570666
71.56877 447.967377407678
71.58889 442.999720494671
71.609 469
71.62911 485.986444304012
71.64923 434.952297258087
71.66934 438.022664765121
71.68946 443.973505620692
71.70957 454.025004275777
71.72968 424.006072241132
71.7498 434
71.76991 404.011003915371
71.79002 460.00859155458
71.81014 410.928470859312
71.83025 418.969578503681
71.85037 417.987758899978
71.87048 439.982203223593
71.89059 441.005323834765
71.91071 428.995998693639
71.93082 430.009852396252
71.95093 431.966289466101
71.97105 406.020856723189
71.99116 437.98604213289
72.01127 418.996449650962
72.03139 443.000874326832
72.0515 420
72.07162 465.036782193479
72.09173 457.937599867941
72.11184 417.978454075774
72.13196 436.956199264538
72.15207 437.030275918937
72.17218 417.997764304467
72.1923 440
72.21241 443.997545741535
72.23253 447.030758683464
72.25264 464.971219199756
72.27275 430.033681413528
72.29287 442.995857094475
72.31298 427.006444952967
72.33309 438.99449618905
72.35321 438.999120950375
72.37332 438.996040102634
72.39344 438.029267765247
72.41355 444.908380997609
72.43366 395.986544786418
72.45378 454.96015988941
72.47389 440.017319599417
72.494 424
72.51412 437.000692809245
72.53423 434.031190697467
72.55434 467.01165422855
72.57446 431.105320966686
72.59457 414.925258080219
72.61469 476.006413287748
72.6348 407
72.65491 447.007601036568
72.67503 406.941928420478
72.69514 412.070994611729
72.71525 448.945588636373
72.73537 449.018693126976
72.75548 443.986774142637
72.7756 458
72.79571 424.992400096563
72.81582 440.020843925972
72.83594 441.964969625618
72.85605 422.010947905754
72.87616 439.941695605146
72.89628 459.998853420884
72.91639 450.001893681654
72.9365 454
72.95662 439.989646000384
72.97673 449.045780175861
72.99685 463.899599732059
73.01696 391.085098087893
73.03707 413.907515622427
73.05719 458.002146548371
73.0773 431
73.09741 462.996803792036
73.11753 420.983892473639
73.13764 462.093623591151
73.15776 468.072371476836
73.17787 426.014511015386
73.19798 436.020890962016
73.2181 403
73.23821 463.001146361984
73.25832 403.968831461049
73.27844 435.078191505593
73.29855 451.955655240122
73.31867 465.031293774544
73.33878 431.993763619998
73.35889 475.985739156569
73.37901 459.981653019459
73.39912 446.028803680313
73.41923 484.994322168212
73.43935 440.927700727403
73.45946 445.993500176059
73.47957 442.966975822289
73.49969 469.011434492663
73.5198 410
73.53992 448.075962307592
73.56003 493.963552107595
73.58014 433.958040823029
73.60026 468.93327904638
73.62037 471.998782395577
73.64048 475.01869059977
73.6606 451
73.68071 487.004445620363
73.70083 457.960748776416
73.72094 463.048739538715
73.74105 475.051315364493
73.76117 443.002962826429
73.78128 467.992701036402
73.80139 462.98371100545
73.82151 518.005738310993
73.84162 469.942190619624
73.86174 439.97407657173
73.88185 450.125454680449
73.90196 506.976246570407
73.92208 479.011609527172
73.94219 487.012597404198
73.9623 442
73.98242 487.01697953381
74.00253 458.970733945881
74.02264 461.973191545755
74.04276 432.014440612638
74.06287 460.940789479505
74.08299 475.011163380493
74.1031 445
74.12321 479.012757741546
74.14333 470.959890440995
74.16344 454.013686188385
74.18355 478.942406494907
74.20367 480.032302448164
74.22378 458.996455779951
74.2439 481
74.26401 468.992762391344
74.28412 456.976081137393
74.30424 433.005393003048
74.32435 455.974869060455
74.34446 444.020259119146
74.36458 443.00840643338
74.38469 436.988561655751
74.40481 485.021084358175
74.42492 484.951578647217
74.44503 438.016729825905
74.46515 487.025298407172
74.48526 449.037602857889
74.50537 469.97833814696
74.52549 451.016426260089
74.5456 436
74.56571 459.998754556433
74.58583 438.000545084557
74.60594 480.12216576641
74.62606 500.119193244893
74.64617 406.06561442894
74.66628 432.965939651373
74.6864 438
74.70651 445.996296312192
74.72662 433.011639807665
74.74674 471.071227538612
74.76685 479.042205009723
74.78697 455.023926749539
74.80708 445.020860217413
74.82719 423.996548159175
74.84731 448.001043791535
74.86742 430.002568954169
74.88753 443.963666802025
74.90765 391.951635389224
74.92776 422.922291325009
74.94787 437.99832212748
74.96799 429.012658529984
74.9881 412
75.00822 482.093183371289
